# SAXS profile: number of points = 802, q_min = 0, q_max = 0.9, delta_q = 0.001125
#    q    intensity    error
0.00000    3280256.25000000 492.03845215
0.00112    3279958.75000000 1881.87634277
0.00225    3279077.50000000 2717.53540039
0.00337    3277625.00000000 3226.41210938
0.00450    3275580.75000000 3242.82470703
0.00562    3272955.00000000 4228.24853516
0.00675    3269750.00000000 3801.08422852
0.00787    3265965.25000000 6086.94238281
0.00900    3261607.50000000 6849.37548828
0.01013    3256664.75000000 7608.38281250
0.01125    3251153.25000000 7766.19189453
0.01237    3245077.50000000 7161.47998047
0.01350    3238424.75000000 9156.64550781
0.01462    3231208.00000000 10602.40136719
0.01575    3223441.50000000 11338.45410156
0.01687    3215117.00000000 8620.53222656
0.01800    3206231.50000000 10965.31152344
0.01912    3196818.25000000 10615.43457031
0.02025    3186846.75000000 15237.11132812
0.02137    3176336.50000000 12792.69433594
0.02250    3165301.75000000 14504.99511719
0.02362    3153734.25000000 12814.01660156
0.02475    3141649.50000000 14561.54394531
0.02587    3129041.00000000 15136.73535156
0.02700    3115937.75000000 13086.93847656
0.02812    3102314.25000000 20329.85351562
0.02925    3088206.25000000 14012.73535156
0.03037    3073615.00000000 15911.71972656
0.03150    3058538.00000000 17892.44531250
0.03262    3042990.50000000 16882.89062500
0.03375    3026973.50000000 20511.52734375
0.03487    3010488.25000000 19440.22656250
0.03600    2993564.25000000 21598.56445312
0.03712    2976186.25000000 18722.07031250
0.03825    2958379.75000000 20900.95312500
0.03937    2940147.50000000 28490.02929688
0.04050    2921496.75000000 18186.31640625
0.04162    2902445.75000000 22269.01367188
0.04275    2882989.75000000 22703.54296875
0.04387    2863142.00000000 25054.28125000
0.04500    2842904.50000000 23539.24804688
0.04612    2822313.75000000 19950.23046875
0.04725    2801345.75000000 24329.68750000
0.04837    2780042.50000000 24707.62695312
0.04950    2758382.25000000 25073.69335938
0.05062    2736400.25000000 21189.99804688
0.05175    2714091.75000000 23622.77539062
0.05287    2691462.50000000 26100.45703125
0.05400    2668547.25000000 28620.16796875
0.05512    2645326.75000000 28951.44726562
0.05625    2621835.25000000 27018.01171875
0.05737    2598071.25000000 36398.97656250
0.05850    2574038.25000000 27567.94921875
0.05962    2549761.75000000 27824.27343750
0.06075    2525248.50000000 28068.13476562
0.06187    2500508.50000000 25941.21093750
0.06300    2475555.00000000 33271.45703125
0.06412    2450380.25000000 31118.29492188
0.06525    2425023.00000000 24098.66406250
0.06637    2399475.50000000 26674.66796875
0.06750    2373753.25000000 29268.37500000
0.06862    2347868.75000000 29424.66406250
0.06975    2321823.75000000 32032.45898438
0.07087    2295645.75000000 27224.92187500
0.07200    2269328.00000000 29818.96875000
0.07312    2242897.25000000 37407.32031250
0.07425    2216351.25000000 27518.76953125
0.07537    2189704.25000000 25085.79882812
0.07650    2162971.50000000 32687.90625000
0.07762    2136153.75000000 37789.89453125
0.07875    2109271.25000000 30278.58789062
0.07987    2082335.75000000 35365.87109375
0.08100    2055352.00000000 30336.99609375
0.08212    2028322.12500000 27819.70312500
0.08325    2001270.00000000 30349.25781250
0.08437    1974195.25000000 25282.03710938
0.08550    1947113.50000000 32842.93359375
0.08662    1920031.87500000 30283.70117188
0.08775    1892964.00000000 30240.09765625
0.08887    1865921.00000000 27670.44140625
0.09000    1838900.50000000 35141.38671875
0.09112    1811920.37500000 32550.01562500
0.09225    1784995.50000000 37451.43750000
0.09337    1758116.87500000 27377.17578125
0.09450    1731314.25000000 24801.07617188
0.09562    1704585.50000000 32117.58593750
0.09675    1677931.25000000 24602.66601562
0.09787    1651381.87500000 29390.46875000
0.09900    1624925.75000000 29248.66210938
0.10012    1598575.37500000 29098.06640625
0.10125    1572344.12500000 33762.15625000
0.10237    1546234.00000000 31169.17578125
0.10350    1520261.12500000 38128.14843750
0.10462    1494417.37500000 23677.17382812
0.10575    1468728.87500000 28221.62304688
0.10687    1443187.12500000 30358.34179688
0.10800    1417810.62500000 25499.32226562
0.10912    1392593.87500000 23003.91015625
0.11025    1367554.25000000 22821.06054688
0.11137    1342692.62500000 24896.03710938
0.11250    1318018.50000000 24683.19140625
0.11362    1293532.12500000 24464.73437500
0.11475    1269240.00000000 26444.61523438
0.11587    1245160.50000000 39292.59375000
0.11700    1221282.37500000 23778.36718750
0.11812    1197619.62500000 25679.95703125
0.11925    1174166.87500000 23296.93750000
0.12037    1150946.37500000 33527.06640625
0.12150    1127951.00000000 20726.09765625
0.12262    1105182.87500000 30741.35156250
0.12375    1082651.75000000 24310.94335938
0.12487    1060363.75000000 20020.99218750
0.12600    1038319.93750000 25713.99023438
0.12712    1016518.50000000 27350.69921875
0.12825    994970.31250000 28934.97851562
0.12937    973670.81250000 20945.48437500
0.13050    952631.43750000 22548.78515625
0.13162    931851.18750000 20391.81640625
0.13275    911334.75000000 20112.01757812
0.13387    891082.68750000 25238.80273438
0.13500    871095.87500000 21324.42578125
0.13612    851376.31250000 22765.26953125
0.13725    831929.18750000 22427.76953125
0.13837    812751.93750000 20389.91406250
0.13950    793850.56250000 26768.63867188
0.14062    775223.50000000 26349.84765625
0.14175    756874.43750000 16206.57324219
0.14288    738800.93750000 20727.52148438
0.14400    721006.00000000 23522.82031250
0.14512    703494.56250000 20045.63671875
0.14625    686259.43750000 18189.30664062
0.14737    669302.50000000 14896.16210938
0.14850    652622.75000000 17562.07812500
0.14962    636229.62500000 14374.81152344
0.15075    620111.37500000 15526.81347656
0.15187    604274.00000000 15242.43261719
0.15300    588719.75000000 23119.02343750
0.15412    573441.81250000 14677.60058594
0.15525    558438.75000000 14397.24902344
0.15637    543711.62500000 17968.98828125
0.15750    529267.06250000 13841.65722656
0.15862    515092.62500000 17266.54687500
0.15975    501192.00000000 18127.48828125
0.16087    487568.28125000 21309.77929688
0.16200    474211.28125000 12753.91210938
0.16312    461125.96875000 12487.57910156
0.16425    448308.03125000 14446.16503906
0.16537    435754.18750000 10874.79003906
0.16650    423468.90625000 11703.62109375
0.16762    411441.65625000 15610.35351562
0.16875    399676.09375000 11194.42675781
0.16987    388166.96875000 12933.96582031
0.17100    376916.81250000 11669.34375000
0.17212    365916.68750000 16154.07812500
0.17325    355166.59375000 12068.11621094
0.17437    344668.06250000 11787.00097656
0.17550    334413.53125000 9738.95800781
0.17662    324403.18750000 10371.98046875
0.17775    314632.03125000 10966.89257812
0.17887    305098.40625000 13171.09863281
0.18000    295802.31250000 11243.44531250
0.18112    286735.62500000 9399.91015625
0.18225    277899.25000000 9930.38183594
0.18337    269287.21875000 11171.21093750
0.18450    260900.07812500 9437.40820312
0.18562    252730.26562500 8489.84082031
0.18675    244778.50000000 11029.71875000
0.18787    237041.06250000 8730.37011719
0.18900    229515.43750000 9157.66601562
0.19012    222191.71875000 7643.95019531
0.19125    215075.29687500 8062.90380859
0.19237    208159.75000000 7245.52001953
0.19350    201441.37500000 7640.16748047
0.19462    194916.89062500 5719.59228516
0.19575    188582.90625000 6678.66357422
0.19687    182435.65625000 5414.91796875
0.19800    176474.62500000 5267.76708984
0.19912    170692.70312500 6148.77783203
0.20025    165088.23437500 5481.96093750
0.20137    159658.12500000 8239.25683594
0.20250    154397.15625000 8012.05371094
0.20362    149305.60937500 5957.57373047
0.20475    144376.04687500 8466.03027344
0.20587    139608.37500000 5631.88916016
0.20700    134997.76562500 6317.89501953
0.20812    130540.65625000 4913.87646484
0.20925    126235.73437500 4777.39111328
0.21037    122077.76562500 3870.62817383
0.21150    118063.92187500 5268.60205078
0.21262    114190.21093750 3659.08251953
0.21375    110455.53906250 4269.65869141
0.21487    106854.37500000 3460.07812500
0.21600    103385.11718750 3701.70385742
0.21712    100043.94531250 3273.31250000
0.21825    96828.00000000  3821.31689453
0.21937    93733.70312500  4647.72656250
0.22050    90758.02343750  4824.69628906
0.22162    87899.35156250  4989.99072266
0.22275    85153.14843750  2857.95239258
0.22387    82518.12500000  3896.81518555
0.22500    79990.18750000  4881.00097656
0.22612    77565.46875000  2906.81420898
0.22725    75242.00781250  2833.70800781
0.22837    73018.89843750  2763.53686523
0.22950    70889.78125000  3676.52124023
0.23062    68853.67187500  2631.45800781
0.23175    66909.98437500  2803.19384766
0.23287    65052.78515625  2738.55957031
0.23400    63283.03515625  3123.01782227
0.23512    61593.03906250  3926.78710938
0.23625    59984.55468750  2348.17016602
0.23737    58453.08203125  3135.09448242
0.23850    56997.72656250  2252.40747070
0.23962    55615.48828125  2810.32006836
0.24075    54303.12500000  1969.16699219
0.24187    53060.25000000  2512.96655273
0.24300    51882.11718750  2468.55102539
0.24412    50768.31250000  1866.68737793
0.24525    49716.45312500  2020.04150391
0.24637    48724.16406250  1807.97094727
0.24750    47788.43750000  2137.57666016
0.24862    46908.78125000  1932.08471680
0.24975    46082.17187500  1733.26562500
0.25087    45307.48828125  2225.30566406
0.25200    44583.33984375  1691.93762207
0.25312    43905.15234375  2008.33129883
0.25425    43274.30468750  2153.92431641
0.25537    42686.87890625  2954.83911133
0.25650    42141.67968750  2116.03881836
0.25762    41638.28515625  1938.36608887
0.25875    41173.67187500  1925.07495117
0.25987    40744.68750000  2072.70776367
0.26100    40353.19531250  3013.17285156
0.26212    39995.80468750  2367.87646484
0.26325    39671.78125000  1572.49023438
0.26438    39378.92968750  2037.78576660
0.26550    39115.53125000  2032.73620605
0.26662    38881.01171875  2029.07836914
0.26775    38673.72265625  1870.84130859
0.26888    38493.01953125  1869.89465332
0.27000    38335.74218750  2025.85217285
0.27112    38202.35546875  1715.30957031
0.27225    38091.49609375  2810.29541016
0.27337    38001.68359375  1720.40734863
0.27450    37932.30468750  2194.57324219
0.27562    37880.57812500  1571.80712891
0.27675    37847.75781250  1576.83215332
0.27787    37831.64062500  2215.56250000
0.27900    37830.66406250  2065.55419922
0.28012    37844.13281250  2393.75952148
0.28125    37871.55468750  2084.40307617
0.28237    37914.88671875  2578.59130859
0.28350    37967.13281250  2106.32153320
0.28462    38031.67187500  2281.18725586
0.28575    38105.16015625  2130.69775391
0.28687    38188.29687500  1813.92016602
0.28800    38282.69921875  2157.42138672
0.28912    38384.19921875  1837.47558594
0.29025    38492.52343750  2354.29882812
0.29137    38608.10546875  1862.52722168
0.29250    38729.09375000  1705.04833984
0.29362    38853.78515625  2060.51342773
0.29475    38985.83984375  2594.26367188
0.29587    39121.58984375  3135.83984375
0.29700    39258.60546875  1930.34558105
0.29812    39400.91406250  2651.80468750
0.29925    39544.17968750  2315.26220703
0.30037    39689.39453125  2332.47119141
0.30150    39836.71093750  1988.34973145
0.30263    39984.53906250  2185.25512695
0.30375    40133.37500000  2751.89526367
0.30487    40280.14453125  1848.10327148
0.30600    40428.71484375  1861.74230957
0.30712    40576.35156250  2250.46557617
0.30825    40721.83203125  2266.78051758
0.30937    40865.26171875  3234.30664062
0.31050    41007.72656250  2490.91186523
0.31162    41147.83203125  2894.36401367
0.31275    41284.73046875  2720.14746094
0.31387    41419.33984375  2151.91577148
0.31500    41549.27734375  2166.37939453
0.31612    41677.00781250  2180.77539062
0.31725    41800.00000000  3392.22656250
0.31837    41919.87890625  2008.22412109
0.31950    42035.15625000  2627.09228516
0.32062    42144.96093750  2846.52319336
0.32175    42250.57031250  2863.63793945
0.32287    42352.00000000  2674.76708984
0.32400    42447.83984375  3724.79785156
0.32512    42537.54687500  2705.14843750
0.32625    42623.22656250  2929.17456055
0.32737    42702.26953125  2944.69506836
0.32850    42776.43359375  2537.07006836
0.32962    42843.71093750  2549.73608398
0.33075    42905.85937500  2348.61303711
0.33187    42960.60156250  3003.10717773
0.33300    43009.83984375  2370.27197266
0.33412    43052.55859375  2597.03784180
0.33525    43088.61718750  2390.61035156
0.33637    43118.86328125  2618.50073242
0.33750    43142.73046875  2628.68627930
0.33862    43158.71484375  2418.53344727
0.33975    43169.13281250  2427.13037109
0.34087    43172.53515625  2213.94165039
0.34200    43169.52343750  2443.17895508
0.34312    43159.34765625  2227.83154297
0.34425    43143.03125000  2457.69677734
0.34537    43119.77734375  2464.37597656
0.34650    43089.32421875  3144.44335938
0.34762    43053.41796875  3602.27929688
0.34875    43009.03906250  2256.36157227
0.34987    42959.17578125  2260.99487305
0.35100    42902.92578125  2491.80175781
0.35212    42838.58593750  2496.01684570
0.35325    42768.53125000  2727.13525391
0.35437    42691.90234375  3641.19213867
0.35550    42609.23828125  2962.08764648
0.35662    42519.53515625  2508.99804688
0.35775    42424.29296875  2282.95727539
0.35887    42322.51953125  2741.54687500
0.36000    42215.04296875  3428.91674805
0.36112    42101.22265625  3430.32861328
0.36225    41981.42578125  3202.44775391
0.36337    41855.23828125  4117.77050781
0.36450    41724.07812500  2973.77929688
0.36562    41586.56250000  3659.20166016
0.36675    41443.98437500  2514.76904297
0.36787    41295.92187500  2513.45043945
0.36900    41143.84375000  3196.87646484
0.37012    40984.17187500  2965.99877930
0.37125    40820.73437500  2507.26025391
0.37237    40651.71093750  2276.74975586
0.37350    40479.06640625  2501.30273438
0.37462    40301.28125000  2951.94287109
0.37575    40118.56250000  3627.52026367
0.37687    39931.96093750  2716.07202148
0.37800    39741.33984375  3614.87207031
0.37912    39546.63671875  2705.87963867
0.38025    39347.61328125  3150.26806641
0.38137    39145.42968750  2694.28198242
0.38250    38938.91796875  2239.96118164
0.38362    38730.45312500  2234.50488281
0.38475    38516.64062500  2228.66894531
0.38587    38300.70312500  2444.90136719
0.38700    38082.48828125  2438.04077148
0.38812    37860.65234375  2651.85449219
0.38925    37636.35937500  2864.07983398
0.39037    37410.22265625  3074.69946289
0.39150    37180.79296875  3721.33251953
0.39262    36950.21093750  3272.51831055
0.39375    36716.60546875  2391.48999023
0.39487    36482.14843750  2166.35546875
0.39600    36245.54687500  2590.10668945
0.39712    36008.09375000  2795.46557617
0.39825    35768.34765625  2784.69995117
0.39937    35528.28906250  2773.80444336
0.40050    35286.53125000  2337.64428711
0.40162    35044.35156250  2116.45971680
0.40275    34801.39843750  2318.42553711
0.40387    34558.06640625  2098.75463867
0.40500    34314.43359375  3761.54785156
0.40612    34070.74609375  2496.78930664
0.40725    33826.64843750  2485.75122070
0.40837    33582.93359375  2062.20190430
0.40950    33339.29687500  2463.44042969
0.41062    33096.54296875  2452.20556641
0.41175    32853.30078125  2644.23901367
0.41287    32611.68945312  2227.03198242
0.41400    32370.89843750  2418.10595703
0.41512    32130.64453125  2406.66552734
0.41625    31891.06835938  2195.58032227
0.41737    31653.87890625  2979.71777344
0.41850    31417.52929688  2965.42187500
0.41962    31182.39062500  2164.15527344
0.42075    30948.77734375  2349.47631836
0.42187    30717.41406250  2532.97705078
0.42300    30487.55468750  2908.51245117
0.42412    30259.40820312  2122.56494141
0.42525    30033.18945312  1920.24707031
0.42637    29810.68164062  3248.78662109
0.42750    29588.91210938  2472.37548828
0.42862    29369.39843750  2649.74365234
0.42975    29152.86718750  2825.45947266
0.43087    28939.05468750  2062.17871094
0.43200    28727.29296875  2425.58886719
0.43312    28518.87109375  2228.53588867
0.43425    28312.89843750  2218.17382812
0.43537    28108.82031250  2023.88769531
0.43650    27908.96093750  2197.83056641
0.43762    27710.97656250  2005.52990723
0.43875    27517.56054688  2178.15234375
0.43987    27325.99609375  1987.81237793
0.44100    27138.04687500  2339.02807617
0.44212    26953.34375000  2149.86596680
0.44325    26771.71875000  1784.00024414
0.44437    26593.07617188  2309.55859375
0.44550    26417.74023438  1946.26086426
0.44662    26246.64648438  2467.21752930
0.44775    26078.09375000  2457.53417969
0.44887    25913.89257812  2273.31225586
0.45000    25752.91992188  1742.18493652
0.45112    25593.73632812  1909.30859375
0.45225    25440.16992188  2594.42016602
0.45337    25289.35156250  2930.16650391
0.45450    25141.48437500  2576.68774414
0.45562    24997.47070312  2225.82153320
0.45675    24857.37695312  2389.47729492
0.45787    24720.64648438  2212.01879883
0.45900    24586.57421875  1866.12097168
0.46012    24457.04101562  2199.16162109
0.46125    24330.22460938  1686.99682617
0.46237    24207.53710938  2019.09008789
0.46350    24087.85351562  1846.15332031
0.46462    23971.78710938  2343.99121094
0.46575    23859.10156250  2004.52233887
0.46687    23749.59179688  2000.13122559
0.46800    23644.54296875  1663.39355469
0.46912    23541.20507812  2158.12524414
0.47025    23442.16015625  2154.18798828
0.47137    23346.47070312  1819.66760254
0.47250    23253.87304688  1816.76684570
0.47362    23163.98828125  2308.78344727
0.47475    23077.30078125  1976.22460938
0.47587    22994.56250000  1809.31274414
0.47700    22913.89257812  1642.92602539
0.47812    22836.82617188  1969.50488281
0.47925    22762.56835938  1803.73425293
0.48037    22691.36523438  2785.37915039
0.48150    22622.81835938  1801.05895996
0.48262    22557.28320312  1800.02880859
0.48375    22494.46679688  1962.75463867
0.48487    22435.02148438  1635.09240723
0.48600    22378.03906250  2125.13037109
0.48712    22323.57226562  2124.85522461
0.48825    22270.88867188  2124.72631836
0.48937    22221.34375000  2124.87426758
0.49050    22174.50390625  2288.74121094
0.49162    22129.30859375  1798.73925781
0.49275    22086.98828125  1962.98107910
0.49387    22046.95507812  2127.54492188
0.49500    22009.11328125  2128.72143555
0.49612    21973.75781250  1966.26672363
0.49725    21939.57617188  1639.70898438
0.49837    21908.96484375  2297.56567383
0.49950    21879.19140625  1806.83825684
0.50062    21851.50585938  1808.60803223
0.50175    21825.99804688  1810.54833984
0.50287    21801.85351562  2306.93579102
0.50400    21779.58984375  1814.78417969
0.50512    21759.39453125  2147.52978516
0.50625    21741.18359375  1654.23217773
0.50738    21723.90820312  3147.50927734
0.50850    21708.44335938  1990.88122559
0.50962    21693.60156250  2492.39135742
0.51075    21681.46093750  1664.32312012
0.51187    21669.66796875  1833.78198242
0.51300    21659.80468750  2170.96191406
0.51412    21650.98828125  2174.82812500
0.51525    21643.59765625  1843.62854004
0.51638    21637.26367188  2350.86157227
0.51750    21632.11523438  2187.16894531
0.51862    21627.64843750  1854.31384277
0.51975    21624.25976562  1858.03747559
0.52087    21623.00390625  2369.74609375
0.52200    21620.37500000  2713.78930664
0.52312    21620.61132812  1699.78540039
0.52425    21621.11914062  2214.51586914
0.52537    21621.64257812  2219.31274414
0.52650    21623.91406250  2224.28979492
0.52762    21626.14453125  1886.29980469
0.52875    21629.69140625  2234.37426758
0.52987    21632.94335938  1894.92407227
0.53100    21637.41796875  2935.33178711
0.53212    21642.18750000  1903.76855469
0.53325    21646.99218750  2255.15649414
0.53437    21652.97460938  2434.41674805
0.53550    21659.18945312  1917.32556152
0.53662    21665.51171875  1921.90686035
